rank,x,support_value_sorted_by_frequency,frequency,log_frequency,fitted_log_frequency,residual
1,0.050000000000000003,0.02,1.2620663634135045,0.23275034864253613,-1.6395153986347342,1.8722657472772704
2,0.14089855614192487,0.032852037169406718,1.0729228678577358,0.07038657649599625,-1.7080062858797036,1.7783928623756999
3,0.19407080285464767,0.04570407433881344,0.9587470985461658,-0.042127952593473746,-1.7553549481403163,1.7132269955468427
4,0.23179711228384975,0.058556111508220154,0.87817708522855009,-0.12990701407976635,-1.7922188223051556,1.6623118082253892
5,0.26105991129063155,0.071408148677626876,0.81640381805070361,-0.20284617136617331,-1.8227986853489568,1.6199525139827835
6,0.2849693589965725,0.084260185847033597,0.76653678102110734,-0.26587259614495257,-1.8491873336635636,1.583314737518611
7,0.30518450899296223,0.097112223016440319,0.72484485239477492,-0.32179764372488473,-1.8725798471490793,1.5507822034241947
8,0.32269566842577457,0.10996426018584704,0.68909442688569544,-0.37237696817787919,-1.8937233676670315,1.5213463994891523
9,0.3381416057092953,0.12281629735525376,0.65784889076296627,-0.4187800233266612,-1.9131162971510576,1.4943362738243964
10,0.35195846743255649,0.13566833452466048,0.63013291876328237,-0.46182449968622513,-1.9311077643711125,1.4692832646848875
11,0.36445733920585238,0.14852037169406718,0.60525576690284122,-0.50210415507579487,-1.9479518611700011,1.4458477060942063
12,0.37586791513849738,0.1613724088634739,0.58271131171044144,-0.54006339244140078,-1.9638392845878074,1.4237758921464065
13,0.38636462746925665,0.17422444603288062,0.5621181774853955,-0.57604317097110957,-1.9789168161098947,1.4028736451387851
14,0.39608306513488706,0.18707648320228734,0.54318216586153245,-0.61031053490119236,-1.9932998500195616,1.3829893151183692
15,0.40513071414527918,0.19992852037169406,0.52567175010756151,-0.64307831026936046,-2.00708074999479,1.3640024397254296
16,0.41359422456769945,0.21278055754110078,0.50940155982167801,-0.67451865436514735,-2.020334597326884,1.3458159429617367
17,0.4215444705534257,0.22563259471050751,0.49422093453931343,-0.7047726258648439,-2.0331232506118861,1.3283506247470422
18,0.42904016185122013,0.23848463187991423,0.48000579561647511,-0.7339571009521032,-2.0454982792317646,1.3115411782796613
19,0.436130477567579,0.25133666904932095,0.46665275054008498,-0.76216987276277637,-2.0575031259090495,1.2953332531462731
20,0.44285702357448131,0.2641887062187277,0.454074735597506,-0.78949347863495445,-2.0691747293638816,1.279681250728927
21,0.44925531184760992,0.27704074338813439,0.4421977413654738,-0.81599811829351399,-2.0805447611573875,1.2645466428638734
22,0.45535589534777726,0.28989278055754114,0.43095831493153586,-0.84174391065199372,-2.0916405818225932,1.2498966711705994
23,0.46118525042412384,0.30274481772694783,0.42030162882341149,-0.86678266159572614,-2.1024859894268761,1.23570332783115
24,0.46676647128042226,0.31559685489635458,0.41017996979341903,-0.89115926487881003,-2.113101812397066,1.2219425475182559
25,0.47211982258126312,0.32844889206576128,0.4005515430111018,-0.91491282409749408,-2.123506383940053,1.208593559842559
26,0.47726318361118153,0.34130092923516803,0.39137951621874201,-0.93807756003774534,-2.1337159253507822,1.1956383653130369
27,0.48221240856394298,0.35415296640457472,0.38263124857774811,-0.96068355103579872,-2.1437448584310821,1.1830613073952834
28,0.48698162127681194,0.36700500357398147,0.37427766318536299,-0.98275734208712118,-2.1536060621921131,1.170848720104992
29,0.49158345822200766,0.37985704074338816,0.36629273245325256,-1.0043224498166532,-2.1633110853545849,1.1589886355379317
30,0.49602927028720412,0.39270907791279491,0.35865305295359279,-1.0253997840979721,-2.1728703234770403,1.1474705393790683
31,0.50032929145781846,0.40556111508220161,0.35133749178643858,-1.046008002414702,-2.1822931675505992,1.1362851651358972
32,0.50449278070962433,0.41841315225160836,0.34432689057083093,-1.0661638095357715,-2.1915881294041788,1.1254243198684073
33,0.50852814206050012,0.43126518942101505,0.33760381620229457,-1.0858822124074745,-2.2007629481318007,1.1148807357243262
34,0.51244302669535058,0.44411722659042174,0.33115234982457509,-1.1051767381241124,-2.2098246808873387,1.1046479427632263
35,0.51624442028359374,0.45696926375982849,0.32495790722728246,-1.1240596212640963,-2.2187797807236889,1.0947201594595926
36,0.51993871799314506,0.46982130092923519,0.31900708524221189,-1.1425419656533156,-2.2276341636333097,1.0850921979799941
37,0.5235317892243625,0.48267333809864194,0.31328752976985291,-1.1606338846573423,-2.2363932665394235,1.0757593818820812
38,0.52702903370950394,0.49552537526804863,0.30778782189733705,-1.1783446233459824,-2.2450620976652393,1.0667174743192569
39,0.53043543032390439,0.50837741243745538,0.30249737922395736,-1.1956826652712262,-2.2536452804526048,1.0579626151813786
40,0.53375557971640619,0.52122944960686213,0.29740637003071774,-1.212655826117822,-2.2621470919966988,1.0494912658788769
41,0.53699374167505909,0.53408148677626877,0.29250563834640148,-1.2292713360980594,-2.2705714967985031,1.0413001607004437
42,0.5401538679895348,0.54693352394567551,0.28778663829726964,-1.2455359126487866,-2.2789221765032748,1.0333862638544882
43,0.54323963144623688,0.55978556111508226,0.28324137639818364,-1.26145582473366,-2.2872025561845808,1.0257467314509208
44,0.54625445148970209,0.57263759828448901,0.27886236066306591,-1.2770369498452772,-2.2954158276445029,1.0183788777992258
45,0.54920151699992681,0.58548963545389565,0.27464255559254758,-1.2922848246307728,-2.303564970127483,1.0112801454967102
46,0.55208380656604883,0.5983416726233024,0.27057534224444413,-1.307204689923434,-2.3116527687848456,1.0044480788614116
47,0.55490410657952971,0.61119370979270915,0.2666544827146527,-1.3218015308461835,-2.3196818311768901,0.99788030033070663
48,0.55766502742234725,0.6240457469621159,0.26287408845714977,-1.336080112555776,-2.3276546020576294,0.99157448950185345
49,0.56036901798592453,0.63689778413152254,0.25922859195589887,-1.3500450121157175,-2.335573376652277,0.98552836453655956
50,0.56301837872318805,0.64974982130092929,0.25571272133178874,-1.3637006469182784,-2.3434403126082004,0.97973966568992199
51,0.56561527340807338,0.66260185847033604,0.25232147752670686,-1.3770513000192286,-2.3512574407752624,0.97420614075603384
52,0.56816173975310647,0.67545389563974267,0.24905011375651975,-1.3901011427011751,-2.3590266749505098,0.96892553224933464
53,0.57065969901559288,0.68830593280914942,0.24589411696669947,-1.4028542545411042,-2.3667498207043529,0.96389556616324867
54,0.57311096470586786,0.70115796997855617,0.24284919105992131,-1.4153146412236384,-2.3744285833902108,0.95911394216657242
55,0.57551725049648406,0.71401000714796292,0.2399112416952269,-1.4274862503126338,-2.3820645754266208,0.95457832511398699
56,0.57788017741873698,0.72686204431736956,0.23707636248417685,-1.4393729851691666,-2.389659322929707,0.95028633776054039
57,0.58020128042222674,0.73971408148677631,0.23434082243152635,-1.450978717183012,-2.3972142717643283,0.94623555458131636
58,0.58248201436393254,0.75256611865618306,0.23170105448693246,-1.4623072964668409,-2.4047307930740027,0.94242349660716185
59,0.58472375948532151,0.76541815582558981,0.2291536450905384,-1.4733625611470238,-2.4122101883425691,0.93884762719554526
60,0.586927826429129,0.77827019299499645,0.22669532460937811,-1.4841483453717612,-2.419653694034376,0.93550534866261481
61,0.58909546084147013,0.7911222301644032,0.22432295857374535,-1.4946684861459194,-2.4270624858544254,0.932393999708506
62,0.59122784759974334,0.80397426733380994,0.22203353963325528,-1.5049268290921274,-2.4344376826652203,0.92951085357309293
63,0.5933261147022576,0.81682630450321669,0.21982418016153071,-1.5149272332291743,-2.4417803500929871,0.92685311686381278
64,0.59539133685154921,0.82967834167262333,0.21769210544646789,-1.5246735748513158,-2.4490915038523733,0.92441792900105746
65,0.59742453875988821,0.84253037884203008,0.21563464741004471,-1.5341697505855874,-2.4563721128155915,0.92220236223000418
66,0.59942669820242489,0.85538241601143683,0.21364923880777215,-1.5434196796984867,-2.4636231018492163,0.92020342215072959
67,0.6013987488407494,0.86823445318084347,0.21173340786327155,-1.5524273057183042,-2.4708453544394393,0.91841804872113508
68,0.60334158283727557,0.88108649035025022,0.20988477329819549,-1.5611965974348438,-2.4780397151244262,0.91684311768958238
69,0.60525605327877163,0.89393852751965697,0.20810103972187757,-1.569731549334205,-2.4852069917505375,0.9154754424163325
70,0.60714297642551884,0.90679056468906372,0.20637999334877941,-1.5780361815225981,-2.4923479575675063,0.91431177604490821
71,0.60900313380093718,0.91964260185847035,0.20471949801505399,-1.5861145391898137,-2.4994633531761687,0.91334881398635503
72,0.61083727413507005,0.9324946390278771,0.2031174914684295,-1.5939706916598615,-2.5065538883410272,0.91258319668116572
73,0.61264611517402057,0.94534667619728385,0.20157198190817505,-1.6016087310734324,-2.5136202436787487,0.91201151260531632
74,0.6144303453662876,0.9581987133666906,0.20008104475418267,-1.6090327707441658,-2.5206630722326508,0.91163030148848501
75,0.61619062543591074,0.97105075053609724,0.19864281962622621,-1.6162469432281854,-2.527683000942293,0.91143605771410763
76,0.61792758985142882,0.98390278770550399,0.1972555075162605,-1.623255398143997,-2.5346806320164434,0.91142523387244645
77,0.61964184819881463,0.99675482487491074,0.19591736813824034,-1.6300622997775733,-2.5416565442169539,0.91159424443938053
78,0.62133398646582927,1.0096068620443175,0.19462671744137777,-1.636671824505302,-2.5486112940603824,0.91193946955508043
79,0.62300456824456163,1.0224588992137242,0.19338192527404927,-1.6430881580653982,-2.5555454169436147,0.91245725887821649
80,0.62465413585833107,1.035310936383131,0.19218141318672669,-1.6493154927063798,-2.5624594281991779,0.91314393549279815
81,0.62628321141859067,1.0481629735525375,0.19102365236334168,-1.6553580242393036,-2.5693538240854501,0.91399579984614654
82,0.62789229781698397,1.0610150107219443,0.1899071616714354,-1.6612199490185822,-2.5762290827165293,0.91500913369794712
83,0.62948187965727331,1.073867047891351,0.18883050582228614,-1.6669054608744174,-2.5830856649361191,0.91618020406170175
84,0.63105242413145968,1.0867190850607578,0.18779229363296912,-1.6724187480181474,-2.5899240151394265,0.91750526712127911
85,0.63260438184405732,1.0995711222301645,0.18679117638299161,-1.6777639899401224,-2.5967445620467471,0.91898057210662465
86,0.63413818758816176,1.1124231593995713,0.18582584625876516,-1.6829453543181054,-2.6035477194320942,0.92060236511398874
87,0.63565426107665535,1.125275196568978,0.18489503487974177,-1.6879669939526254,-2.610333886809979,0.92236689285735363
88,0.63715300763162719,1.1381272337383845,0.18399751190054955,-1.6928330437442003,-2.617103450083194,0.92427040633899371
89,0.63863481883483886,1.1509792709077913,0.18313208368392572,-1.6975476177259021,-2.6238567821542214,0.92630916442831923
90,0.6401000731418518,1.163831308077198,0.18229759203966556,-1.7021148061633327,-2.630594243502693,0.92847943733936034
91,0.64154913646221889,1.1766833452466048,0.18149291302518752,-1.7065386727327552,-2.637316182731146,0.93077750999839082
92,0.64298236270797371,1.1895353824160115,0.18071695580366209,-1.7108232517868518,-2.6440229370811217,0.93319968529426989
93,0.64440009431246614,1.2023874195854183,0.17996866155597024,-1.7149725457163525,-2.6507148329215466,0.93574228720519415
94,0.64580266272145459,1.215239456754825,0.1792470024430439,-1.7189905224146533,-2.6573921862111392,0.93840166379648582
95,0.64719038885821056,1.2280914939242318,0.17855098061540675,-1.7228811128514308,-2.6640553029364948,0.94117419008506409
96,0.64856358356427202,1.2409435310936383,0.17787962726697398,-1.7266482087602426,-2.6707044795273713,0.94405627076712872
97,0.6499225480173576,1.2537955682630451,0.17723200173038939,-1.7302956604441462,-2.6773400032505705,0.94704434280642436
98,0.65126757412784952,1.2666476054324518,0.17660719061138161,-1.7338272747024488,-2.6839621525837423,0.95013487788129347
99,0.65259894491514769,1.2794996426018586,0.17600430695980437,-1.7372468128808793,-2.6905711975703146,0.95332438468943526
100,0.65391693486511304,1.2923516797712653,0.17542248947519734,-1.7405579890466749,-2.6971674001566859,0.95660941111001097
101,0.65522181026972293,1.3052037169406721,0.17486090174485791,-1.7437644682893669,-2.7037510145127355,0.95998654622336854
102,0.65651382954999815,1.3180557541100788,0.17431873151255833,-1.7468698651473842,-2.7103222873366324,0.9634524221892482
103,0.65779324356317403,1.3309077912794853,0.1737951899761748,-1.7498777421599745,-2.7168814581448473,0.96700371598487278
104,0.65906029589503135,1.3437598284488921,0.17328951111261365,-1.752791608543417,-2.7234287595482369,0.97063715100481995
105,0.66031522313824154,1.3566118656182988,0.17280095102853463,-1.7556149189899737,-2.7299644175149842,0.97434949852501052
106,0.66155825515751765,1.3694639027877056,0.17232878733547097,-1.7583510725875995,-2.7364886516211406,0.97813757903354115
107,0.66278961534231762,1.3823159399571123,0.17187231854804252,-1.7610034118580262,-2.7430016752894684,0.98199826343144214
108,0.66400952084779286,1.3951679771265191,0.17143086350404485,-1.7635752219104806,-2.7495036960172312,0.98592847410675066
109,0.6652181828246313,1.4080200142959258,0.17100376080527754,-1.766069729708001,-2.7559949155935364,0.98992518588553535
110,0.66641580663840894,1.4208720514653326,0.17059036827805169,-1.7684901034430347,-2.7624755303068094,0.99398542686377467
111,0.66760259207901029,1.4337240886347391,0.1701900624523823,-1.7708394520187924,-2.7689457311429191,0.99810627912412664
112,0.66877873356066175,1.4465761258041459,0.1698022380589381,-1.7731208246326358,-2.7754057039744708,1.0022848793418351
113,0.669944420313072,1.4594281629735526,0.16942630754287913,-1.7753372104576222,-2.7818556297417185,1.0065184192840964
114,0.67109983656415173,1.4722802001429593,0.16906170059376685,-1.7774915384182199,-2.7882956846255524,1.0108041462073325
115,0.67224516171475546,1.4851322373123661,0.16870786369078439,-1.7795866770560997,-2.794726040212967,1.0151393631568673
116,0.67338057050585742,1.4979842744817728,0.168364259662549,-1.7816254344818625,-2.8011468636553971,1.0195214291735346
117,0.67450623317855207,1.5108363116511796,0.16803036726084497,-1.783610558408518,-2.8075583178202974,1.0239477594117794
118,0.67562231562724639,1.5236883488205861,0.16770568074764464,-1.7855447362625108,-2.813960561436291,1.0284158251737803
119,0.676728979546388,1.5365403859899929,0.16738970949482346,-1.787430595368108,-2.8203537492322348,1.0329231538641268
120,0.67782638257105388,1.5493924231593996,0.16708197759601062,-1.7892707032009774,-2.826738032070482,1.0374673288695047
121,0.67891467841170483,1.5622444603288064,0.16678202349004859,-1.791067567706836,-2.833113557074646,1.04204598936781
122,0.67999401698339501,1.5750964974982131,0.16648939959556641,-1.7928236376811044,-2.8394804677521313,1.0466568300710268
123,0.68106454452970666,1.5879485346676199,0.16620367195619989,-1.7945413032055719,-2.8458389041116812,1.0512976009061092
124,0.68212640374166822,1.6008005718370266,0.16592441989601742,-1.796222896138165,-2.8521890027761874,1.0559661066380224
125,0.68317973387189479,1.6136526090064334,0.16565123568473689,-1.7978706906520001,-2.8585308970909988,1.0606602064389987
126,0.68422467084418248,1.6265046461758399,0.16538372421233977,-1.7994869038200103,-2.8648647172279196,1.0653778134079093
127,0.68526134735877031,1.6393566833452466,0.16512150267271219,-1.801073696241539,-2.8711905902851251,1.0701168940435861
128,0.68628989299347409,1.6522087205146534,0.16486420025596213,-1.8026331727074123,-2.8775086403831738,1.0748754676757615
129,0.68731043430088445,1.6650607576840601,0.16461145784907991,-1.8041673829001246,-2.8838189887572958,1.0796516058571712
130,0.6883230949018132,1.6779127948534669,0.16436292774462907,-1.8056783221258874,-2.890121753846139,1.0844434317202516
131,0.68932799557515756,1.6907648320228736,0.16411827335716822,-1.8071679320754348,-2.8964170513771244,1.0892491193016896
132,0.69032525434434977,1.7036168691922804,0.16387716894712309,-1.8086381016105855,-2.9027049944485732,1.0940668928379877
133,0.69131498656054136,1.7164689063616869,0.16363929935183957,-1.8100906675737161,-2.908985693608745,1.098895026035029
134,0.69229730498267428,1.7293209435310937,0.16340435972356429,-1.8115274156174108,-2.9152592569319271,1.1037318413145163
135,0.6932723198545746,1.7421729807005004,0.16317205527411149,-1.8129500810516923,-2.9215257900917138,1.1085757090400215
136,0.69424013897920045,1.7550250178699072,0.16294210102598553,-1.8143603497063687,-2.9277853964315823,1.1134250467252136
137,0.69520086779017143,1.7678770550393139,0.1627142215697423,-1.8157598588061528,-2.9340381770329005,1.1182783182267477
138,0.69615460942069651,1.7807290922087207,0.16248815082738016,-1.8171501978563434,-2.9402842307804704,1.1231340329241271
139,0.69710146477001267,1.7935811293781274,0.16226363182156406,-1.8185329095369756,-2.9465236544257172,1.1279907448887416
140,0.6980415325674435,1.8064331665475342,0.1620404164504933,-1.8199094906034721,-2.9527565426476139,1.1328470520441418
141,0.69897490943417739,1.8192852037169407,0.16181826526823392,-1.8212813927919405,-2.9589829881114564,1.137701595319516
142,0.69990168994286206,1.8321372408863474,0.16159694727034374,-1.8226500237273862,-2.9652030815255666,1.1425530577981804
143,0.7008219666751091,1.8449892780557542,0.16137623968462697,-1.8240167478332059,-2.9714169116960072,1.1474001638628013
144,0.70173583027699482,1.8578413152251609,0.16115592776686122,-1.8253828872404547,-2.9776245655794087,1.152241678338954
145,0.70264336951263917,1.8706933523945677,0.16093580460134863,-1.8267497226954623,-2.9838261283339662,1.1570764056385039
146,0.70354467131594556,1.8835453895639744,0.16071567090614686,-1.8281184944644926,-2.9900216833686928,1.1619031889042002
147,0.70443982084057211,1.8963974267333812,0.16049533484284462,-1.8294904032342245,-2.9962113123910017,1.1667209091567772
148,0.70532890150821226,1.9092494639027877,0.16027461183074956,-1.8308666110069318,-3.0023950954526777,1.1715284844457459
149,0.70621199505524646,1.9221015010721945,0.1600533243653636,-1.8322482419893251,-3.0085731109943081,1.176324869004983
150,0.70708918157783573,1.9349535382416012,0.15983130184102559,-1.8336363834741034,-3.0147454358882317,1.1811090524141283
151,0.70796053957551586,1.947805575411008,0.15960838037760586,-1.8350320867133429,-3.020912145480068,1.1858800587667251
152,0.7088261459933537,1.9606576125804147,0.15938440265114082,-1.8364363677829367,-3.027073313628879,1.1906369458459423
153,0.70968607626272096,1.9735096497498215,0.15915921772830346,-1.8378502084373509,-3.0332290127460206,1.1953788043086697
154,0.71054040434073962,1.9863616869192282,0.15893268090460544,-1.8392745569540587,-3.0393793138327339,1.2001047568786751
155,0.71138920274845008,1.999213724088635,0.15870465354623339,-1.8407103289670581,-3.0455242865165184,1.2048139575494603
156,0.71223254260775415,2.0120657612580413,0.15847500293542505,-1.8421584082889537,-3.0516639990863483,1.2095055907973946
157,0.71307049367717557,2.0249177984274485,0.15824360211929375,-1.8436196477211344,-3.057798518526762,1.2141788708056276
158,0.71390312438648651,2.0377698355968552,0.15801032976201412,-1.8450948698516385,-3.0639279105508743,1.2188330406992358
159,0.71473050187024056,2.050621872766262,0.15777507000028385,-1.8465848678403503,-3.07005223963235,1.2234673717919997
160,0.71555269200025584,2.0634739099356683,0.15753771230198071,-1.8480904061912149,-3.0761715690363829,1.228081162845168
161,0.71636975941708614,2.076325947105075,0.15729815132793634,-1.849612221511211,-3.0822859608497071,1.2326737393384961
162,0.71718176756051544,2.0891779842744818,0.15705628679674963,-1.8511510232558639,-3.088395476009687,1.2372444527538231
163,0.71798877869911759,2.1020300214438885,0.1568120233525688,-1.8527074944611117,-3.0945001743325111,1.2417926798713994
